time/s,freq/Hz,|Z|/Ohm,Phase(Z)/deg,I/A,Ewe/V,loop_index
126.23869597606244,7000018.5,50.752583,-20.75998,-1.8129722e-07,3.0623946,0
127.92069400261971,5553741.0,55.57743,-19.09903,1.2298935e-06,3.062411,0
129.60268677587737,4406287.0,59.84439,-17.494406,1.0417219e-06,3.0623963,0
131.28469256238895,3495908.2,62.7554,-16.196306,9.958442e-07,3.062391,0
131.85469402946183,2773623.0,65.84877,-15.022871,1.0083407e-06,3.0623841,0
132.28568068993627,2200573.5,68.261314,-13.717103,1.0092738e-06,3.0623837,0
132.71669327045674,1745917.5,70.531975,-12.688665,1.0642884e-06,3.0623858,0
133.1476961975859,1385197.1,72.49954,-11.747922,1.0478775e-06,3.0623875,0
133.57869805805967,1099001.6,74.35646,-11.045208,1.0413506e-06,3.06239,0
134.00868365177303,871938.1,76.088844,-10.45698,1.0510483e-06,3.0623868,0
134.43967719227658,691786.7,77.82998,-10.023446,1.0131898e-06,3.0623815,0
134.87070003940607,548860.6,79.5532,-9.711428,9.785016e-07,3.0623865,0
135.30169941988424,435458.72,81.28513,-9.432649,1.0089008e-06,3.0623896,0
135.73269994699513,345494.38,83.07616,-9.260022,9.86335e-07,3.0623782,0
136.16368855416658,274105.56,84.93146,-9.119113,9.57055e-07,3.0623813,0
136.59469860131503,217478.84,86.81231,-8.938678,9.453046e-07,3.0623827,0
136.88670072183595,172543.05,88.75237,-8.826052,9.163986e-07,3.0623846,0
138.15269131530658,136895.03,90.684044,-8.85986,9.514592e-07,3.06238,0
139.8346980085189,108614.164,92.61273,-8.817298,9.4157485e-07,3.0623872,0
140.68269311546464,86169.46,94.68935,-8.635939,9.0576833e-07,3.0623875,0
141.25270383586758,68364.016,96.54129,-8.675596,8.6958863e-07,3.0623915,0
141.68368313633255,54242.133,98.50861,-8.65339,8.759294e-07,3.0623841,0
142.1146932101401,43033.695,100.70995,-8.649163,8.910354e-07,3.0623808,0
142.40669626402087,34144.895,102.6255,-8.764334,8.673507e-07,3.0623896,0
142.69869379789452,27093.232,104.90581,-8.936825,8.7909973e-07,3.0623927,0
143.12969885833445,21489.018,106.93575,-9.140542,8.59145e-07,3.0623853,0
143.42168553886586,17053.887,109.34558,-9.497705,8.656722e-07,3.0623944,0
143.71369912612136,13528.057,111.89597,-9.8564625,8.6791005e-07,3.0623915,0
144.14468127992586,10735.229,114.43291,-10.323093,8.408686e-07,3.0623798,0
144.60950591528672,8517.451,117.305176,-10.832995,7.8939644e-07,3.0623755,0
144.98499907985388,6753.7354,120.52559,-11.568869,7.216994e-07,3.0623782,0
145.43657174127293,5359.6797,124.05429,-12.242059,7.440785e-07,3.0623713,0
145.90401283017127,4253.6406,128.09587,-12.795311,7.017444e-07,3.062369,0
146.37102946569212,3373.921,132.63017,-13.457991,7.3680496e-07,3.0623767,0
146.8377849011158,2677.5674,137.50896,-14.177895,7.61795e-07,3.0623846,0
147.30402900333866,2124.317,142.96448,-14.764345,7.142391e-07,3.0623846,0
147.7708848121838,1685.5374,148.46347,-15.384863,7.588109e-07,3.0623796,0
148.23761720766197,1337.1407,154.99113,-15.945015,7.146119e-07,3.0623784,0
148.70475037649157,1061.0223,161.49971,-16.361904,7.2598783e-07,3.0623686,0
149.1716591186414,841.34937,169.0455,-16.815174,7.231904e-07,3.062379,0
149.64066948762047,667.64954,176.50789,-17.180382,6.551203e-07,3.0623698,0
150.10800817651034,529.83014,184.87657,-17.601858,7.3661784e-07,3.0623784,0
150.57475630528643,420.40347,193.27817,-18.093903,6.571718e-07,3.0623727,0
151.04389840764634,333.39932,202.44603,-18.644005,7.256147e-07,3.0623863,0
151.51129053646582,264.5768,212.6799,-18.95347,7.0267606e-07,3.0623758,0
151.97703799862938,209.93277,223.70691,-19.606663,6.657504e-07,3.0623798,0
152.4401135406224,166.5458,236.38567,-20.014528,6.48593e-07,3.0623674,0
153.1506825343531,132.1569,249.73952,-20.306622,1.5409541e-06,3.0623684,0
153.6182775432244,104.8319,265.02893,-20.519594,1.5622812e-06,3.0623658,0
154.0933568724722,83.16338,281.78992,-20.61152,1.5411593e-06,3.0623686,0
154.5539330010215,65.992546,299.70938,-20.361017,1.5320988e-06,3.0623689,0
155.00193443564058,52.362606,318.52478,-19.806448,1.5303278e-06,3.0623727,0
155.45458776378655,41.52827,338.07736,-18.973923,1.5444401e-06,3.0623746,0
155.94730570717365,32.964127,356.87302,-17.907341,1.5423893e-06,3.0623655,0
156.39716911522555,26.146248,375.717,-16.619474,1.5124868e-06,3.062359,0
156.85069879007642,20.750315,392.41595,-15.135279,1.5361629e-06,3.0623617,0
157.28121187721263,16.45893,408.19897,-13.683294,1.5456519e-06,3.0623732,0
157.81061656898237,13.064369,421.31253,-12.256878,1.6086636e-06,3.06238,0
158.26299312386254,10.361374,432.55502,-10.786218,1.5419047e-06,3.0623798,0
158.8191706436046,8.223653,442.4393,-9.669307,1.5848758e-06,3.0623827,0
159.18928780785063,6.5212846,451.7352,-8.39083,1.5235045e-06,3.0623856,0
159.64524348283885,5.1738396,458.53473,-7.471642,1.5404319e-06,3.062376,0
160.20469198937644,4.103206,464.90805,-6.531894,1.5695609e-06,3.0623736,0
160.89394834215636,3.257923,470.43332,-5.7703333,1.5276618e-06,3.0623822,0
161.7491245160927,2.5834963,475.13974,-5.1251926,1.5527487e-06,3.0623806,0
162.8140204600204,2.049446,479.17715,-4.5658274,1.5774607e-06,3.0623786,0
164.812249594921,1.6259104,483.19183,-4.069688,1.6633417e-06,3.0623782,0
166.4803678074677,1.2902544,487.12012,-3.6893578,1.6349369e-06,3.062376,0
168.5722967334732,1.0236502,490.0452,-3.3547597,1.6380558e-06,3.0623746,0
171.19511851141579,0.8126199,492.71683,-3.073616,1.6163393e-06,3.062375,0
174.4938329614597,0.64438283,496.06595,-2.8518434,1.6220474e-06,3.062377,0
178.6422946517996,0.51122236,498.38184,-2.6557796,1.6348544e-06,3.0623837,0
183.85616401946754,0.4058443,501.3049,-2.5090737,1.621085e-06,3.0623734,0
190.4222204646503,0.32181963,503.97296,-2.3361475,1.6428013e-06,3.0623806,0
198.68844792395248,0.25531054,506.83142,-2.2172253,1.5898296e-06,3.0623627,0
209.096671938285,0.2025798,509.01373,-2.1952486,1.6202641e-06,3.0623784,0
222.20904709446768,0.16068146,511.31442,-2.1552908,1.6207822e-06,3.0623822,0
238.72378393213148,0.12750551,513.47644,-2.0623915,1.6216853e-06,3.0623868,0
259.516177506448,0.10123998,515.72595,-2.0341675,1.6189763e-06,3.0623996,0
285.7210316311248,0.08030087,518.1446,-1.9933496,1.5860404e-06,3.0623991,0
318.7528269600607,0.063687116,520.3661,-2.0000405,1.5649823e-06,3.0623918,0
360.38732821753365,0.050522164,522.5966,-1.9737909,1.557801e-06,3.062394,0
412.87065444371547,0.040071532,525.0665,-1.9918891,1.5592684e-06,3.0623991,0
478.9768191836274,0.03180936,527.4703,-1.974276,1.5013524e-06,3.0623808,0
562.2431383385265,0.02525203,530.06757,-2.1072671,1.4964029e-06,3.0623956,0
667.279798927455,0.020016208,532.1564,-2.160762,1.4610218e-06,3.0623949,0
799.6896461232973,0.01587741,534.18756,-2.321037,1.4462314e-06,3.062399,0
966.4442267370468,0.01260668,536.4813,-2.3882778,1.3736623e-06,3.0623934,0
1176.713557817653,0.009997264,539.09515,-2.5170352,1.3477066e-06,3.062403,0
1176.7318495252111,0.0,0.0,0.0,-7.166636e-07,3.0607455,0
1352.296544712779,7000018.5,50.699947,-20.767345,-2.0330339e-07,3.062618,1
1353.005531066432,5553741.0,55.59685,-19.094812,1.2666327e-06,3.062623,1
1354.6875364263396,4406287.0,59.8314,-17.518835,1.286774e-06,3.062609,1
1356.369525412898,3495908.2,62.845104,-16.13746,1.2890117e-06,3.0626225,1
1357.217537106524,2773623.0,65.82484,-14.925703,1.2151618e-06,3.062614,1
1357.6485442736157,2200573.5,68.24169,-13.763311,1.1495166e-06,3.062609,1
1358.0795312274568,1745917.5,70.48928,-12.7010145,1.2541385e-06,3.062621,1
1358.5105267945764,1385197.1,72.50977,-11.753231,1.171709e-06,3.0626042,1
1358.9415385483735,1099001.6,74.358215,-11.041391,1.1564168e-06,3.0626063,1
1359.372540515542,871938.1,76.132935,-10.470719,1.2060239e-06,3.0626,1
1359.8035478959646,691786.7,77.86321,-9.994859,1.1620115e-06,3.062616,1
1360.2345275431144,548860.6,79.514435,-9.70422,1.1942742e-06,3.0626125,1
1360.6655255369114,435458.72,81.3753,-9.404027,1.1420569e-06,3.0626137,1
1361.096544437387,345494.38,83.067955,-9.23425,1.0523535e-06,3.0626056,1
1361.527545364559,274105.56,84.95549,-9.066116,1.1364614e-06,3.0626059,1
1361.958536664999,217478.84,86.870964,-8.991862,1.1187432e-06,3.0625958,1
1362.250535265528,172543.05,88.74332,-8.836109,1.0842424e-06,3.0626032,1
1363.5155379656208,136895.03,90.645256,-8.83328,1.1086729e-06,3.0625997,1
1365.1985262855742,108614.164,92.60182,-8.7360525,1.1062483e-06,3.062597,1
1366.4645518923498,86169.46,94.77038,-8.6832285,1.0044233e-06,3.062583,1
1366.895532579496,68364.016,96.69874,-8.602777,9.55935e-07,3.062582,1
1367.327551293347,54242.133,98.67671,-8.6923485,1.0342621e-06,3.06259,1
1367.619530000593,43033.695,100.694214,-8.63414,1.0238184e-06,3.0625913,1
1368.0505340210366,34144.895,102.67985,-8.727733,9.680571e-07,3.0625923,1
1368.3425390749326,27093.232,104.98034,-8.914042,1.0461977e-06,3.0625913,1
1368.6345385021268,21489.018,107.02423,-9.189645,9.958444e-07,3.0625918,1
1368.926544809292,17053.887,109.472885,-9.4601145,9.960308e-07,3.0625868,1
1369.3575434964587,13528.057,111.69306,-9.920454,9.921146e-07,3.062594,1
1369.649544523665,10735.229,114.433784,-10.292127,1.0029311e-06,3.0625854,1
1369.965343605305,8517.451,117.37313,-10.820088,9.911821e-07,3.0625858,1
1370.3408532231988,6753.7354,120.55828,-11.413064,9.408289e-07,3.062588,1
1370.792396657911,5359.6797,123.97327,-12.132534,9.384045e-07,3.0625794,1
1371.2608821202302,4253.6406,128.10307,-12.802298,9.432532e-07,3.0625966,1
1371.7278592090734,3373.921,132.4766,-13.4603195,9.646998e-07,3.0625916,1
1372.1946375511907,2677.5674,137.40453,-14.068571,9.477288e-07,3.0625937,1
1372.6618881334434,2124.317,142.84805,-14.739893,9.717862e-07,3.0626009,1
1373.128726635623,1685.5374,148.60167,-15.372698,8.928996e-07,3.0625982,1
1373.5954937510978,1337.1407,154.8247,-15.858514,9.1042983e-07,3.0625982,1
1374.0626340132294,1061.0223,161.51877,-16.330261,9.609694e-07,3.0625937,1
1374.529499235432,841.34937,169.06798,-16.763567,9.111756e-07,3.062605,1
1374.9985259777022,667.64954,176.64684,-17.128092,9.626476e-07,3.062601,1
1375.4658568799496,529.83014,184.72064,-17.733507,9.997597e-07,3.0625966,1
1375.93261274205,420.40347,193.42122,-18.043072,9.646989e-07,3.0625935,1
1376.4017450577448,333.39932,202.35591,-18.656847,9.4754154e-07,3.0625951,1
1376.8701432132948,264.5768,212.57039,-19.080605,8.9178013e-07,3.0625947,1
1377.3358595554455,209.93277,223.7149,-19.399529,9.074455e-07,3.0625973,1
1377.7989307240787,166.5458,235.92993,-19.933184,8.9140707e-07,3.0625985,1
1378.509551131152,132.1569,249.86732,-20.341747,1.7315743e-06,3.0625942,1
1378.9771458733449,104.8319,264.95303,-20.553581,1.7220852e-06,3.0625894,1
1379.4522428025812,83.16338,281.61438,-20.644178,1.7052512e-06,3.0625916,1
1379.911774104461,65.992546,299.84177,-20.433199,1.713808e-06,3.0625951,1
1380.3607660724592,52.362606,318.87036,-19.858114,1.7081592e-06,3.0625873,1
1380.8114425204549,41.52827,338.09094,-18.922472,1.7259255e-06,3.0625944,1
1381.304171050535,32.964127,357.27655,-17.912819,1.7514099e-06,3.062594,1
1381.7530189385725,26.146248,375.76587,-16.577,1.7343705e-06,3.062598,1
1382.2045855733304,20.750315,392.33835,-15.092862,1.7374839e-06,3.0626073,1
1382.6350508204632,16.45893,407.92825,-13.680668,1.7312758e-06,3.0626009,1
1383.164472818884,13.064369,421.22687,-12.245096,1.7871662e-06,3.0625994,1
1383.6168481471104,10.361374,432.7865,-10.9417,1.7118875e-06,3.062592,1
1384.1740253202297,8.223653,442.45593,-9.633938,1.7849477e-06,3.0626028,1
1384.5441147511447,6.5212846,450.78625,-8.479695,1.7372973e-06,3.062603,1
1385.0000910661329,5.1738396,458.18243,-7.4193835,1.7310148e-06,3.0626013,1
1385.5585168792604,4.103206,464.7912,-6.542698,1.7861129e-06,3.0626044,1
1386.2478462720755,3.257923,469.9875,-5.7132998,1.7165295e-06,3.0625966,1
1387.1029491393565,2.5834963,474.96033,-5.0954027,1.7546354e-06,3.0626023,1
1388.167894523256,2.049446,479.08032,-4.516321,1.76775e-06,3.0626063,1
1390.1660708848358,1.6259104,483.23822,-4.0921497,1.8493439e-06,3.062602,1
1391.834295737368,1.2902544,486.95325,-3.7013202,1.8460562e-06,3.062607,1
1393.926122716759,1.0236502,489.95712,-3.3308313,1.8182043e-06,3.062592,1
1396.5490301746613,0.8126199,492.72308,-3.0357347,1.7945385e-06,3.0625918,1
1399.84746299799,0.64438283,495.54013,-2.8670232,1.797252e-06,3.062584,1
1403.9928495682543,0.51122236,498.2015,-2.6108856,1.8109774e-06,3.0625944,1
1409.2074913359102,0.4058443,500.99826,-2.456443,1.8097851e-06,3.0625865,1
1415.7728257277631,0.32181963,503.95465,-2.350393,1.7982144e-06,3.06259,1
1424.038980920377,0.25531054,506.3362,-2.2709336,1.7988491e-06,3.0625987,1
1434.4484626947524,0.2025798,508.40778,-2.1435652,1.7817504e-06,3.062591,1
1447.5607826242776,0.16068146,510.82968,-2.1034052,1.7735559e-06,3.06259,1
1464.0746545019938,0.12750551,512.90076,-2.045388,1.766066e-06,3.0626,1
1484.8678595162637,0.10123998,515.66345,-2.00758,1.7625629e-06,3.0625985,1
1511.0716731608973,0.08030087,517.6644,-1.9641255,1.7395743e-06,3.0626082,1
1544.1064707832265,0.063687116,520.06085,-1.9443892,1.7037853e-06,3.0626097,1
1585.7399810007628,0.050522164,522.7706,-1.9354005,1.6888806e-06,3.0626147,1
1638.2222976535413,0.040071532,525.0773,-1.9912897,1.6986405e-06,3.0626245,1
1704.3293506334157,0.03180936,527.2668,-2.0641277,1.6965831e-06,3.0626261,1
1787.5946007216553,0.02525203,529.28394,-2.1328247,1.6239563e-06,3.0626192,1
1892.6322078706435,0.020016208,531.7112,-2.173915,1.5621188e-06,3.0626051,1
2025.042058853156,0.01587741,533.6189,-2.2748163,1.5321432e-06,3.062613,1
2191.7967831736023,0.01260668,536.04126,-2.378314,1.4303948e-06,3.0626075,1
2402.0672512675374,0.009997264,539.0849,-2.4978426,1.4100767e-06,3.062618,1
2402.085697721792,0.0,0.0,0.0,-6.6047323e-06,3.060797,1
2577.9253797757556,7000018.5,50.88099,-20.635057,8.687993e-08,3.0628428,2
2579.0513828959083,5553741.0,55.629845,-19.106472,1.4935947e-06,3.0628548,2
2580.7333881491213,4406287.0,59.830936,-17.451756,1.2931145e-06,3.0628402,2
2582.4153838023194,3495908.2,62.778717,-16.21544,1.3126964e-06,3.0628395,2
2583.124383062648,2773623.0,65.85476,-14.980374,1.2207565e-06,3.0628326,2
2583.555383909843,2200573.5,68.30808,-13.785105,1.2381008e-06,3.0628324,2
2583.9863866503,1745917.5,70.503075,-12.6875515,1.2341839e-06,3.0628293,2
2584.417390884075,1385197.1,72.52837,-11.770453,1.2408979e-06,3.0628288,2
2584.848385784542,1099001.6,74.449165,-11.052282,1.2078889e-06,3.0628376,2
2585.279397618375,871938.1,76.11269,-10.467703,1.2054645e-06,3.0628386,2
2585.7103969188174,691786.7,77.83537,-10.000002,1.3072895e-06,3.0628314,2
2586.142389952671,548860.6,79.56412,-9.668775,1.2149749e-06,3.062839,2
2586.5733870664844,435458.72,81.34865,-9.437353,1.2528338e-06,3.0628366,2
2587.004387513618,345494.38,83.16524,-9.281503,1.1884935e-06,3.062839,2
2587.435386307421,274105.56,84.98941,-9.091975,1.1478376e-06,3.0628302,2
2587.8663957145764,217478.84,86.951225,-8.960544,1.1737587e-06,3.0628262,2
2588.1583813017933,172543.05,88.84214,-8.823721,1.1569748e-06,3.0628192,2
2589.4233738951734,136895.03,90.629364,-8.742936,1.1635019e-06,3.062826,2
2591.105398081767,108614.164,92.61913,-8.655015,1.1429875e-06,3.0628178,2
2591.9533742553904,86169.46,94.74957,-8.671394,1.092448e-06,3.0628204,2
2592.524394469161,68364.016,96.66384,-8.642317,1.0503005e-06,3.0628183,2
2592.955375369638,54242.133,98.72004,-8.705141,1.064101e-06,3.062815,2
2593.3863961900934,43033.695,100.8252,-8.70793,1.0549628e-06,3.06281,2
2593.678375217307,34144.895,102.68938,-8.704087,1.0072205e-06,3.0628061,2
2593.9703819511924,27093.232,104.963165,-8.948904,1.0432137e-06,3.0628164,2
2594.2623850583914,21489.018,106.97589,-9.146638,1.0146802e-06,3.0628095,2
2594.6933779055253,17053.887,109.308846,-9.40164,1.0383649e-06,3.0628085,2
2594.985383546038,13528.057,111.82643,-9.864322,1.0074069e-06,3.06281,2
2595.277386679896,10735.229,114.35251,-10.348791,1.0199018e-06,3.0628135,2
2595.593187681574,8517.451,117.34958,-10.895382,1.046384e-06,3.062814,2
2595.968676419463,6753.7354,120.43338,-11.468738,9.574268e-07,3.0628169,2
2596.4222704942804,5359.6797,124.25325,-12.123742,9.995741e-07,3.0628264,2
2596.889714969875,4253.6406,128.40836,-12.737698,9.934197e-07,3.0628119,2
2597.3567117120547,3373.921,132.4406,-13.422591,1.0316506e-06,3.0628066,2
2597.823474134202,2677.5674,137.57222,-14.096517,1.0588785e-06,3.0628161,2
2598.290729063083,2124.317,142.96013,-14.814743,1.0756628e-06,3.0628183,2
2598.7575954319327,1685.5374,148.38954,-15.375244,1.00349e-06,3.062816,2
2599.2243227073923,1337.1407,154.85501,-15.896968,1.0333287e-06,3.062815,2
2599.6914630495594,1061.0223,161.68015,-16.345581,1.021393e-06,3.0628178,2
2600.1583250983967,841.34937,169.07286,-16.768421,1.0488075e-06,3.0628202,2
2600.6273414673633,667.64954,176.49776,-17.189226,1.0096438e-06,3.0628004,2
2601.0946999696025,529.83014,184.95515,-17.610209,1.0568265e-06,3.0628068,2
2601.5614621517016,420.40347,193.26822,-18.12555,1.0016246e-06,3.0628054,2
2602.0306011073917,333.39932,202.74301,-18.38969,9.684288e-07,3.0628242,2
2602.4989870229037,264.5768,212.63536,-18.99074,1.0359392e-06,3.0628254,2
2602.964703311751,209.93277,223.69145,-19.425114,1.0279201e-06,3.0628252,2
2603.4277780537377,166.5458,235.9506,-19.904741,1.0213928e-06,3.062816,2
2604.1384079807904,132.1569,249.75159,-20.329905,1.7604331e-06,3.062809,2
2604.6069682163943,104.8319,265.23682,-20.598854,1.7777705e-06,3.0628145,2
2605.082060532295,83.16338,281.919,-20.551037,1.8071885e-06,3.0628254,2
2605.542668234193,65.992546,299.53235,-20.322378,1.7914914e-06,3.0628211,2
2605.991626122195,52.362606,318.97528,-19.791735,1.7564247e-06,3.0628092,2
2606.443285636953,41.52827,338.2806,-18.962847,1.7636768e-06,3.062807,2
2606.9360003536567,32.964127,357.60336,-17.80024,1.7872222e-06,3.0628166,2
2607.384869841684,26.146248,375.45145,-16.529692,1.7611226e-06,3.0628018,2
2607.837410983164,20.750315,392.40143,-15.091216,1.7881356e-06,3.0628157,2
2608.267921750288,16.45893,407.529,-13.716219,1.7712455e-06,3.062811,2
2608.797294628748,13.064369,420.91913,-12.235134,1.8442404e-06,3.0628245,2
2609.2496796102787,10.361374,432.64374,-10.84127,1.7711895e-06,3.0628111,2
2609.8069107300544,8.223653,442.36514,-9.571186,1.8047461e-06,3.0628133,2
2610.1769591209595,6.5212846,451.5224,-8.432356,1.7551382e-06,3.0628035,2
2610.632940635958,5.1738396,458.6579,-7.41399,1.7608802e-06,3.0628054,2
2611.1914035158115,4.103206,464.82062,-6.519711,1.8040563e-06,3.0628161,2
2611.8806300552387,3.257923,470.20316,-5.771033,1.7621478e-06,3.0628169,2
2612.735828042496,2.5834963,474.69562,-5.137146,1.812539e-06,3.0628169,2
2613.801752146479,2.049446,478.82492,-4.507262,1.8158711e-06,3.062809,2
2615.799988161365,1.6259104,482.814,-4.0532627,1.891166e-06,3.062813,2
2617.467985120602,1.2902544,486.42236,-3.6915781,1.8674805e-06,3.0628054,2
2619.559119086596,1.0236502,489.48886,-3.322003,1.8857928e-06,3.0628088,2
2622.181871131179,0.8126199,492.55197,-3.0605137,1.8698888e-06,3.0628068,2
2625.4802139278036,0.64438283,495.5186,-2.8461893,1.8591742e-06,3.0628002,2
2629.6257178314117,0.51122236,497.93466,-2.6163986,1.8517486e-06,3.0628045,2
2634.839766399062,0.4058443,500.6862,-2.4725685,1.8328749e-06,3.0627973,2
2641.4058112175844,0.32181963,503.56207,-2.3463192,1.7976283e-06,3.0627866,2
2649.67298539693,0.25531054,505.8067,-2.2344341,1.8030853e-06,3.0627887,2
2660.0812164779636,0.2025798,508.20154,-2.1582122,1.803583e-06,3.0627909,2
2673.193521127454,0.16068146,510.65912,-2.1120825,1.7906069e-06,3.0628028,2
2689.7092733785394,0.12750551,512.81805,-2.0333397,1.798747e-06,3.062801,2
2710.501671912818,0.10123998,515.2785,-1.9886158,1.7761867e-06,3.0628037,2
2736.7064258774044,0.08030087,517.2968,-1.969779,1.7609093e-06,3.0628154,2
2769.740307259781,0.063687116,519.74335,-1.9337183,1.7526997e-06,3.0628154,2
2811.3738268106536,0.050522164,522.16864,-1.972459,1.7210062e-06,3.062804,2
2863.85605741007,0.040071532,524.3317,-1.985942,1.7077889e-06,3.0628102,2
2929.9630934566376,0.03180936,526.79877,-2.078729,1.6107442e-06,3.0628,2
3013.228386584844,0.02525203,528.8792,-2.0767708,1.6372622e-06,3.062804,2
3118.265936240554,0.020016208,530.95355,-2.2226975,1.5898237e-06,3.0628102,2
3250.674760262991,0.01587741,532.5057,-2.2955184,1.5318079e-06,3.0628092,2
3417.428369623318,0.01260668,535.4422,-2.3720646,1.5000318e-06,3.0628133,2
3627.698840357334,0.009997264,537.9486,-2.4929645,1.4282608e-06,3.0628142,2
3627.7165459315293,0.0,0.0,0.0,-5.7792486e-06,3.0610375,2
3803.5592264656007,7000018.5,50.84719,-20.794844,-3.3366214e-07,3.0629313,3
3805.2412393188133,5553741.0,55.619656,-19.10098,1.1211681e-06,3.0629628,3
3806.9232420653716,4406287.0,59.81458,-17.42866,1.0406029e-06,3.0629392,3
3808.605238571952,3495908.2,62.758472,-16.20866,9.883845e-07,3.0629232,3
3809.1762400657317,2773623.0,65.81788,-15.016388,1.031839e-06,3.0629256,3
3809.607237712902,2200573.5,68.268906,-13.762453,9.729075e-07,3.0629199,3
3810.038247306671,1745917.5,70.502914,-12.692271,9.943536e-07,3.062914,3
3810.4692435138422,1385197.1,72.47226,-11.762613,9.773833e-07,3.0629191,3
3810.900231614316,1099001.6,74.395065,-11.01052,1.0167336e-06,3.0629234,3
3811.3312353681104,871938.1,76.0555,-10.446522,1.0564565e-06,3.0629308,3
3811.7622412018973,691786.7,77.867714,-9.996552,9.674991e-07,3.062926,3
3812.1932279957255,548860.6,79.54695,-9.702546,9.721609e-07,3.0629246,3
3812.624223722858,435458.72,81.30096,-9.433612,9.697372e-07,3.062917,3
3813.055238996647,345494.38,83.12907,-9.2425375,9.574285e-07,3.0629282,3
3813.4862441637815,274105.56,84.96857,-9.08545,9.1845095e-07,3.0629134,3
3813.9172462375864,217478.84,86.90388,-8.992673,9.044626e-07,3.062909,3
3814.209244304817,172543.05,88.71648,-8.847055,8.311713e-07,3.0629094,3
3815.4742328715656,136895.03,90.690315,-8.737607,9.3859126e-07,3.062921,3
3817.157222204798,108614.164,92.52301,-8.63529,9.885712e-07,3.0629206,3
3818.006230591811,86169.46,94.72563,-8.720325,9.932337e-07,3.0629156,3
3818.576236032197,68364.016,96.62826,-8.64215,9.898768e-07,3.0629163,3
3819.0072225327167,54242.133,98.72753,-8.59969,1.0268024e-06,3.0629115,3
3819.3002445199672,43033.695,100.61061,-8.678125,1.0212075e-06,3.0629156,3
3819.731245820425,34144.895,102.7254,-8.754643,1.0036772e-06,3.062921,3
3820.023231647632,27093.232,104.840096,-8.917471,9.889442e-07,3.0629249,3
3820.3152466481697,21489.018,107.10953,-9.102618,9.827899e-07,3.0629227,3
3820.6072455686663,17053.887,109.08414,-9.398311,9.60224e-07,3.062925,3
3821.0382431891776,13528.057,111.78357,-9.854774,9.80179e-07,3.0629268,3
3821.3302250963316,10735.229,114.48171,-10.396759,9.2441746e-07,3.0629213,3
3821.6460384713864,8517.451,117.451805,-10.906681,9.199417e-07,3.06292,3
3822.0215370759106,6753.7354,120.55136,-11.435013,8.363928e-07,3.0629258,3
3822.473100457297,5359.6797,124.10961,-12.109414,8.509391e-07,3.0629196,3
3822.940553812892,4253.6406,128.04253,-12.781897,8.2296503e-07,3.0629132,3
3823.4075874350674,3373.921,132.35066,-13.485585,8.809643e-07,3.0629165,3
3823.8742872171715,2677.5674,137.60487,-14.094141,8.660448e-07,3.0629227,3
3824.3415447594307,2124.317,142.79115,-14.756543,8.578389e-07,3.0629225,3
3824.808453714948,1685.5374,148.53346,-15.395264,8.990538e-07,3.0629227,3
3825.2751822970604,1337.1407,154.85661,-15.828509,8.3732454e-07,3.0629082,3
3825.742311679249,1061.0223,161.56656,-16.288261,8.5075186e-07,3.0629184,3
3826.209166981411,841.34937,169.16609,-16.735949,8.500058e-07,3.0629177,3
3826.6781846037047,667.64954,176.43034,-17.121468,7.8529257e-07,3.0629148,3
3827.1455635859456,529.83014,184.5191,-17.545095,7.9275225e-07,3.0629141,3
3827.612310541401,420.40347,193.39929,-18.088305,8.087907e-07,3.0629146,3
3828.0814544304158,333.39932,202.88925,-18.410309,8.4217294e-07,3.062916,3
3828.548821705932,264.5768,212.39966,-19.002535,7.8697093e-07,3.0629249,3
3829.0145690080535,209.93277,224.01604,-19.489893,7.748489e-07,3.0629237,3
3829.4776426300377,166.5458,236.26949,-20.01859,8.128935e-07,3.062912,3
3830.1892447171413,132.1569,249.89705,-20.3242,1.6418104e-06,3.0629222,3
3830.6578451394016,104.8319,265.13013,-20.55569,1.6348567e-06,3.0629168,3
3831.132940121999,83.16338,281.80484,-20.625925,1.6309605e-06,3.06291,3
3831.5925134505087,65.992546,299.75833,-20.37486,1.6369632e-06,3.0629137,3
3832.0414893385023,52.362606,318.61664,-19.789537,1.6055506e-06,3.0628977,3
3832.4921394132107,41.52827,338.39673,-18.976965,1.6180969e-06,3.0629077,3
3832.9848549565795,32.964127,356.8253,-17.820637,1.6176122e-06,3.0629098,3
3833.433725457944,26.146248,375.29736,-16.596264,1.6099686e-06,3.0629005,3
3833.8872717194754,20.750315,392.35614,-15.130288,1.5849877e-06,3.062899,3
3834.317754619944,16.45893,407.2895,-13.554433,1.5722734e-06,3.0628953,3
3834.8471353117056,13.064369,420.8306,-12.182225,1.6721882e-06,3.0629125,3
3835.299503253249,10.361374,432.63223,-10.801926,1.6119076e-06,3.0629134,3
3835.8567266130267,8.223653,442.39624,-9.604368,1.6724306e-06,3.062919,3
3836.2268030039413,6.5212846,450.97388,-8.495682,1.6121685e-06,3.0629246,3
3836.6827836389275,5.1738396,458.3901,-7.405045,1.611516e-06,3.0629163,3
3837.2412162254477,4.103206,463.83658,-6.4858117,1.6656353e-06,3.062928,3
3837.9305432715482,3.257923,469.50372,-5.743548,1.589117e-06,3.0629203,3
3838.785673552149,2.5834963,474.36523,-5.112854,1.64319e-06,3.0629222,3
3839.8505937094014,2.049446,478.46674,-4.5966287,1.66667e-06,3.0629184,3
3841.8488737509615,1.6259104,482.5898,-4.069473,1.703092e-06,3.0628986,3
3843.516926630182,1.2902544,485.8856,-3.6548471,1.6889467e-06,3.0628948,3
3845.608994676222,1.0236502,488.98087,-3.3146896,1.6961841e-06,3.062903,3
3848.2317458941397,0.8126199,491.97952,-3.0176382,1.7114154e-06,3.0629082,3
3851.5300263974495,0.64438283,495.27063,-2.797066,1.7004464e-06,3.0629067,3
3855.6774558211473,0.51122236,497.7458,-2.65739,1.7239835e-06,3.0629106,3
3860.8920928154403,0.4058443,499.8711,-2.469339,1.7215308e-06,3.0629127,3
3867.4573355806206,0.32181963,502.48166,-2.3702912,1.7231957e-06,3.062918,3
3875.7235442666133,0.25531054,505.1691,-2.220852,1.6799828e-06,3.0628989,3
3886.130675614244,0.2025798,507.69806,-2.1497226,1.6819804e-06,3.0628998,3
3899.244477330474,0.16068146,509.6532,-2.085215,1.6626987e-06,3.0629008,3
3915.759370968226,0.12750551,512.3016,-1.9931827,1.6333969e-06,3.0628977,3
3936.5517433424393,0.10123998,514.8885,-1.9822705,1.6181905e-06,3.0628934,3
3962.7565667204617,0.08030087,516.96533,-1.9764487,1.6117679e-06,3.062892,3
3995.7883605827337,0.063687116,519.2789,-2.0261402,1.6101535e-06,3.0629034,3
4037.422991146872,0.050522164,521.3926,-1.9457072,1.6263397e-06,3.0629134,3
4089.9061962263804,0.040071532,523.85016,-1.9954252,1.5902873e-06,3.0628932,3
4156.01321832629,0.03180936,525.4523,-2.0355697,1.595473e-06,3.06292,3
4239.278546467904,0.02525203,528.0136,-2.0970871,1.5274269e-06,3.0629077,3
4344.3160778035235,0.020016208,530.4641,-2.1102245,1.4912173e-06,3.062923,3
4476.725870305992,0.01587741,532.65533,-2.238333,1.4626345e-06,3.0629246,3
4643.480445933128,0.01260668,535.60077,-2.3217354,1.4092304e-06,3.062905,3
4853.750906720379,0.009997264,538.3836,-2.5211847,1.3953746e-06,3.0629153,3
4853.769394161325,0.0,0.0,0.0,-4.3812765e-06,3.0611405,3
5030.183078984643,7000018.5,50.74435,-20.756687,-5.354942e-08,3.0632246,4
5030.892079578334,5553741.0,55.581223,-19.096554,1.3434677e-06,3.0632217,4
5032.574072538206,4406287.0,59.839836,-17.499397,1.2541376e-06,3.0632162,4
5034.256076511432,3495908.2,62.72406,-16.119295,1.2166523e-06,3.0632148,4
5035.104093911737,2773623.0,65.81638,-14.9788,1.2121776e-06,3.0632129,4
5035.535095158877,2200573.5,68.20895,-13.770309,1.2532067e-06,3.0632122,4
5035.966071926028,1745917.5,70.52295,-12.712965,1.134037e-06,3.0632107,4
5036.397080159833,1385197.1,72.50167,-11.729645,1.1728278e-06,3.0632126,4
5036.828092553624,1099001.6,74.33707,-11.058247,1.2339981e-06,3.063213,4
5037.260083854111,871938.1,76.089294,-10.470191,1.1720821e-06,3.0632105,4
5037.6910812879505,691786.7,77.7958,-10.0189905,1.1730145e-06,3.0632126,4
5038.1220855750435,548860.6,79.57677,-9.681898,1.1592134e-06,3.063215,4
5038.553085222229,435458.72,81.2855,-9.407089,1.1075557e-06,3.0632136,4
5038.984092416038,345494.38,83.099266,-9.245318,1.1534328e-06,3.0632129,4
5039.416081396543,274105.56,84.95417,-9.09179,1.1345965e-06,3.0632117,4
5039.847078990337,217478.84,86.80385,-9.023903,1.1038238e-06,3.0632143,4
5040.139077350876,172543.05,88.71841,-8.892873,1.0866669e-06,3.0632055,4
5041.4040791176085,136895.03,90.603775,-8.8125925,1.103824e-06,3.0632122,4
5043.086089944205,108614.164,92.78203,-8.78451,1.0424676e-06,3.0632148,4
5043.934081771149,86169.46,94.69021,-8.669345,1.1364604e-06,3.0632064,4
5044.504087611538,68364.016,96.70067,-8.6248255,1.0454517e-06,3.063207,4
5044.935083018645,54242.133,98.82929,-8.678738,1.091329e-06,3.0632021,4
5045.2280984992685,43033.695,100.80051,-8.715986,1.0834962e-06,3.0632033,4
5045.659082199709,34144.895,102.65951,-8.878489,1.0855478e-06,3.0632057,4
5045.951093146956,27093.232,104.88681,-8.932948,1.0896505e-06,3.0632122,4
5046.243081774126,21489.018,107.11718,-9.113604,1.0818177e-06,3.063199,4
5046.535093814688,17053.887,109.307526,-9.43976,1.0633548e-06,3.063202,4
5046.967084981879,13528.057,111.87207,-9.852024,1.0654063e-06,3.0631988,4
5047.259087182378,10735.229,114.51931,-10.451743,1.1127753e-06,3.0631948,4
5047.574884077389,8517.451,117.30829,-10.853347,1.0508599e-06,3.0632021,4
5047.95039660194,6753.7354,120.47841,-11.543361,1.0051689e-06,3.0632005,4
5048.4019753967,5359.6797,124.155945,-12.081152,1.0558952e-06,3.0632098,4
5048.869437125599,4253.6406,128.09239,-12.815631,1.0514192e-06,3.0631993,4
5049.3364063744375,3373.921,132.57622,-13.533892,1.053284e-06,3.0632071,4
5049.803165703226,2677.5674,137.26715,-14.100635,9.674969e-07,3.063204,4
5050.270414072147,2124.317,142.7401,-14.778632,1.0051685e-06,3.063211,4
5050.737300920977,1685.5374,148.60168,-15.328627,9.936059e-07,3.063211,4
5051.204030063091,1337.1407,154.90022,-15.924895,1.08219e-06,3.0632186,4
5051.671157338627,1061.0223,161.53607,-16.354862,1.0182227e-06,3.063208,4
5052.138052534108,841.34937,168.93364,-16.736685,9.777536e-07,3.063208,4
5052.607069089747,667.64954,176.47293,-17.228664,9.958434e-07,3.0632112,4
5053.074437298652,529.83014,184.63254,-17.63655,1.0279201e-06,3.063205,4
5053.541141907423,420.40347,193.46962,-17.984854,1.0428395e-06,3.0632076,4
5054.010305716438,333.39932,202.8098,-18.420828,9.947242e-07,3.0632107,4
5054.478671178658,264.5768,212.65152,-19.03487,9.895025e-07,3.063214,4
5054.944433494136,209.93277,224.1189,-19.37947,9.2217846e-07,3.0632093,4
5055.407504716131,166.5458,236.41214,-19.907068,9.419467e-07,3.0632038,4
5056.118110269861,132.1569,249.57771,-20.333735,1.7515592e-06,3.0632079,4
5056.586663412105,104.8319,264.96292,-20.503483,1.7567418e-06,3.0632093,4
5057.061771728011,83.16338,281.68332,-20.570639,1.7766334e-06,3.0632126,4
5057.521332496544,65.992546,299.8493,-20.407265,1.7634903e-06,3.063213,4
5057.970324517853,52.362606,318.53424,-19.823503,1.7769876e-06,3.063218,4
5058.420996405912,41.52827,338.11026,-18.968397,1.7660443e-06,3.0632122,4
5058.914733282669,32.964127,357.38916,-17.81457,1.7636206e-06,3.0632195,4
5059.363585170679,26.146248,375.18466,-16.526785,1.7770246e-06,3.0632312,4
5059.816124445497,20.750315,392.0455,-15.053406,1.7622413e-06,3.0632148,4
5060.2466285993,16.45893,406.76172,-13.642206,1.7667713e-06,3.0632212,4
5060.77600529106,13.064369,420.43167,-12.1196165,1.7979789e-06,3.063217,4
5061.228382245958,10.361374,431.9401,-10.743011,1.7518386e-06,3.063208,4
5061.7855654457235,8.223653,442.3209,-9.556019,1.7904474e-06,3.0632195,4
5062.1556529299705,6.5212846,451.1471,-8.431042,1.7567975e-06,3.0632203,4
5062.611609751621,5.1738396,457.59766,-7.407767,1.7597616e-06,3.063215,4
5063.170095618145,4.103206,463.4823,-6.477639,1.7950613e-06,3.0632124,4
5063.8593305042305,3.257923,469.41852,-5.746359,1.7574687e-06,3.0632112,4
5064.714513904852,2.5834963,473.9847,-5.0558076,1.7844573e-06,3.0632157,4
5065.780420728814,2.049446,478.50266,-4.5440426,1.8023972e-06,3.0632126,4
5067.777640076994,1.6259104,481.9729,-4.0080776,1.8408622e-06,3.063206,4
5069.445826716226,1.2902544,485.70633,-3.6167474,1.8518373e-06,3.0632107,4
5071.537752522243,1.0236502,488.82913,-3.3495753,1.8512537e-06,3.0632093,4
5074.1605886468315,0.8126199,491.66037,-3.0375745,1.8483463e-06,3.0632102,4
5077.459105070127,0.64438283,494.30228,-2.8132157,1.8308574e-06,3.063205,4
5081.604597320402,0.51122236,496.9564,-2.610146,1.8288489e-06,3.0632102,4
5086.818647194741,0.4058443,499.45654,-2.4729118,1.7981478e-06,3.0632024,4
5093.3846424399235,0.32181963,502.261,-2.3001008,1.8081994e-06,3.063208,4
5101.650863232528,0.25531054,504.73917,-2.2006488,1.8105266e-06,3.063209,4
5112.0591505802295,0.2025798,507.12198,-2.1490295,1.8036661e-06,3.0632079,4
5125.171508509724,0.16068146,509.32727,-2.0855424,1.7964818e-06,3.0632017,4
5141.686382627493,0.12750551,512.14197,-2.0046754,1.8002345e-06,3.0631967,4
5162.477689268329,0.10123998,514.0936,-1.9993035,1.779076e-06,3.0631995,4
5188.683529153059,0.08030087,516.10876,-1.9750109,1.7406996e-06,3.0631895,4
5221.716258002045,0.063687116,518.5327,-1.9772806,1.7572228e-06,3.0632036,4
5263.349753899471,0.050522164,520.6583,-1.9856402,1.7208596e-06,3.0631888,4
5315.832961165608,0.040071532,523.2171,-1.9332355,1.7237596e-06,3.0632176,4
5381.939995718858,0.03180936,526.0346,-1.9994521,1.7035408e-06,3.0632036,4
5465.205382900487,0.02525203,528.12317,-2.061543,1.682989e-06,3.0632067,4
5570.242993889464,0.020016208,530.7556,-2.220737,1.6771529e-06,3.063223,4
5702.652781565237,0.01587741,532.18085,-2.2768342,1.5957289e-06,3.0632122,4
5869.407275325717,0.01260668,535.1538,-2.4012272,1.5704832e-06,3.0632098,4
6079.677739072969,0.009997264,537.30804,-2.554816,1.4824456e-06,3.0632107,4
6079.69624419391,0.0,0.0,0.0,7.864048e-07,3.0616386,4
6256.107938990521,7000018.5,50.749897,-20.84842,2.1854413e-07,3.0633543,5
6257.789946857083,5553741.0,55.5968,-19.083336,1.5754654e-06,3.0633698,5
6259.471925816964,4406287.0,59.791107,-17.457392,1.4919165e-06,3.0633643,5
6261.153936643503,3495908.2,62.79706,-16.18935,1.3893448e-06,3.0633655,5
6261.723940883938,2773623.0,65.85098,-15.013208,1.4070632e-06,3.0633535,5
6262.154940051085,2200573.5,68.28873,-13.760616,1.3738678e-06,3.0633593,5
6262.585939111537,1745917.5,70.557724,-12.700169,1.394568e-06,3.0633602,5
6263.016937958659,1385197.1,72.5158,-11.791381,1.3306011e-06,3.063357,5
6263.447932405805,1099001.6,74.38269,-11.018846,1.3028139e-06,3.06335,5
6263.878925972967,871938.1,76.13686,-10.44202,1.3197849e-06,3.063349,5
6264.309943673434,691786.7,77.817924,-10.044655,1.3499964e-06,3.0633488,5
6264.740929933905,548860.6,79.544395,-9.680832,1.3384334e-06,3.0633433,5
6265.171931901015,435458.72,81.320496,-9.457671,1.2852837e-06,3.0633368,5
6265.602939574805,345494.38,83.11015,-9.219876,1.2440684e-06,3.0633323,5
6266.033935568645,274105.56,84.97658,-9.050237,1.2077018e-06,3.0633318,5
6266.464934335789,217478.84,86.895004,-8.921971,1.1748776e-06,3.063331,5
6266.756944136287,172543.05,88.78998,-8.949413,1.2750249e-06,3.063333,5
6268.021945823042,136895.03,90.580925,-8.722984,1.1517528e-06,3.0633225,5
6269.703928969626,108614.164,92.56818,-8.751891,1.2358611e-06,3.0633276,5
6270.551945756539,86169.46,94.60193,-8.634783,1.2162794e-06,3.063329,5
6271.121947276988,68364.016,96.77778,-8.625921,1.2431344e-06,3.063331,5
6271.552922470786,54242.133,98.65107,-8.613085,1.1556691e-06,3.0633254,5
6271.983945131244,43033.695,100.72949,-8.653157,1.1892379e-06,3.063335,5
6272.275938745122,34144.895,102.64985,-8.695712,1.1765562e-06,3.0633318,5
6272.567947212316,27093.232,104.84838,-8.889097,1.1545501e-06,3.0633252,5
6272.998927046137,21489.018,107.15991,-9.222584,1.1640612e-06,3.0633214,5
6273.2909254599945,17053.887,109.48198,-9.451094,1.1254571e-06,3.0633204,5
6273.582948300522,13528.057,111.757614,-9.972364,1.1605177e-06,3.063327,5
6274.013947734318,10735.229,114.46721,-10.366832,1.1511931e-06,3.0633233,5
6274.478758103098,8517.451,117.32882,-10.920922,1.1306788e-06,3.063316,5
6274.854253747617,6753.7354,120.61103,-11.517103,1.0102043e-06,3.063318,5
6275.305829769,5359.6797,124.035774,-12.147381,1.0465703e-06,3.063325,5
6275.773254697939,4253.6406,128.12845,-12.820905,1.0993477e-06,3.0633185,5
6276.240246506786,3373.921,132.56592,-13.4648,1.1211673e-06,3.0633256,5
6276.707003675576,2677.5674,137.27332,-14.089127,1.1099776e-06,3.0633273,5
6277.174261324486,2124.317,142.63121,-14.770856,1.1099776e-06,3.0633159,5
6277.641121026667,1685.5374,148.5642,-15.34473,1.1151992e-06,3.0633197,5
6278.107893582142,1337.1407,155.02997,-15.774388,1.0665244e-06,3.063318,5
6278.575019924319,1061.0223,161.79395,-16.332739,1.1081123e-06,3.0633216,5
6279.041875813156,841.34937,168.9014,-16.72843,1.1073663e-06,3.0633245,5
6279.51089892874,667.64954,176.77797,-17.214127,1.1595843e-06,3.0633287,5
6279.978280337673,529.83014,184.6614,-17.566013,1.1319833e-06,3.0633273,5
6280.4449895597645,420.40347,193.24924,-18.025295,1.0999064e-06,3.0633228,5
6280.914179182117,333.39932,203.10188,-18.543453,1.1118419e-06,3.0633185,5
6281.381530937622,264.5768,213.14372,-19.017511,1.0954305e-06,3.0633242,5
6281.847251786443,209.93277,224.09404,-19.536364,1.1730117e-06,3.0633235,5
6282.310364528414,166.5458,236.27214,-19.824442,1.1439188e-06,3.0633297,5
6283.020927148813,132.1569,250.33641,-20.32919,1.7672189e-06,3.0633214,5
6283.488531064388,104.8319,265.03537,-20.533392,1.7812381e-06,3.063324,5
6283.9636275136145,83.16338,281.51733,-20.640114,1.7770622e-06,3.0633256,5
6284.424191535509,65.992546,299.33472,-20.277193,1.7579348e-06,3.0633233,5
6284.8721950767795,52.362606,318.6335,-19.859753,1.7720845e-06,3.063325,5
6285.322831391473,41.52827,338.4556,-18.838467,1.7691762e-06,3.063325,5
6285.815546161553,32.964127,356.91354,-17.741547,1.7743961e-06,3.0633175,5
6286.2644460762385,26.146248,375.1136,-16.537716,1.7503286e-06,3.0633209,5
6286.71896999114,20.750315,392.01382,-15.052265,1.7458916e-06,3.0633175,5
6287.1494625716,16.45893,407.24164,-13.574327,1.7486134e-06,3.0633218,5
6287.678826756717,13.064369,420.37573,-12.173114,1.7913608e-06,3.0633194,5
6288.132244484965,10.361374,432.16983,-10.760008,1.7602092e-06,3.063312,5
6288.689400484756,8.223653,441.90598,-9.49341,1.7792058e-06,3.063318,5
6289.059512875654,6.5212846,450.42123,-8.277852,1.7364957e-06,3.0633247,5
6289.515469323989,5.1738396,457.60547,-7.3824997,1.7417901e-06,3.0633233,5
6290.073956977169,4.103206,463.92053,-6.4914107,1.7807811e-06,3.0633268,5
6290.7632277032535,3.257923,468.73373,-5.707347,1.7301201e-06,3.0633228,5
6291.618437530531,2.5834963,473.72284,-5.0586505,1.7661625e-06,3.0633368,5
6292.685308327869,2.049446,478.01425,-4.529134,1.7547887e-06,3.0633175,5
6294.683520449442,1.6259104,481.92062,-4.0583344,1.8148146e-06,3.0633156,5
6296.351509542001,1.2902544,485.13046,-3.6579666,1.7977571e-06,3.0633118,5
6298.442684521317,1.0236502,488.67197,-3.3231068,1.794459e-06,3.06331,5
6301.065431232564,0.8126199,491.359,-3.0334074,1.82822e-06,3.063327,5
6304.363875282521,0.64438283,494.2207,-2.8150156,1.8298014e-06,3.0633297,5
6308.509386412799,0.51122236,497.13858,-2.5874531,1.8493414e-06,3.0633316,5
6313.723403700453,0.4058443,499.84818,-2.5000412,1.8490773e-06,3.0633376,5
6320.289468225674,0.32181963,502.0767,-2.3626463,1.8415238e-06,3.0633323,5
6328.556526804983,0.25531054,504.17508,-2.2754848,1.8260996e-06,3.0633385,5
6338.964677299315,0.2025798,506.892,-2.1417108,1.7949467e-06,3.0633388,5
6352.0784674422175,0.16068146,509.38272,-2.1071343,1.7699741e-06,3.0633337,5
6368.594300200028,0.12750551,511.5425,-2.0425055,1.7492132e-06,3.0633225,5
6389.385609134217,0.10123998,513.79407,-1.9776354,1.7621282e-06,3.0633316,5
6415.59144088559,0.08030087,516.11316,-1.9228257,1.7558816e-06,3.0633347,5
6448.6243025879085,0.063687116,518.7326,-1.9719653,1.7244857e-06,3.0633264,5
6490.256670565344,0.050522164,520.8342,-2.0074084,1.7116454e-06,3.06333,5
6542.739968391485,0.040071532,522.8975,-2.0166283,1.6940451e-06,3.0633273,5
6608.846070971391,0.03180936,524.884,-2.0755289,1.6709413e-06,3.0633326,5
6692.112350659649,0.02525203,526.91736,-2.0680385,1.6175267e-06,3.0633285,5
6797.148924981884,0.020016208,529.6954,-2.1564095,1.5869313e-06,3.0633256,5
6929.5587618844,0.01587741,531.5929,-2.2351694,1.5246058e-06,3.0633225,5
7096.313400124811,0.01260668,534.30914,-2.3725677,1.4752923e-06,3.0633147,5
7306.582832298707,0.009997264,537.20355,-2.4110436,1.4263658e-06,3.0633154,5
7306.601094272977,0.0,0.0,0.0,-7.1244813e-06,3.0616732,5
7482.287790608447,7000018.5,50.682392,-20.770483,-1.359794e-07,3.0635374,6
7482.718783188931,5553741.0,55.63845,-19.07347,1.242948e-06,3.0635455,6
7484.400791562191,4406287.0,59.811264,-17.440355,1.2871466e-06,3.0635417,6
7486.082790548709,3495908.2,62.818512,-16.178343,1.1709617e-06,3.0635335,6
7487.069777022261,2773623.0,65.830124,-14.976438,1.1045713e-06,3.0635192,6
7487.500774856104,2200573.5,68.30986,-13.765233,1.0803276e-06,3.0635118,6
7487.9317961831985,1745917.5,70.5489,-12.700675,1.1278827e-06,3.0635114,6
7488.362793590379,1385197.1,72.51098,-11.78453,1.1340373e-06,3.0635283,6
7488.793779824133,1099001.6,74.35006,-11.017031,1.1614522e-06,3.0635295,6
7489.2247832313005,871938.1,76.07198,-10.46208,1.1435488e-06,3.063514,6
7489.655791971745,691786.7,77.86874,-10.040771,1.1428026e-06,3.0635226,6
7490.086772045557,548860.6,79.55066,-9.690262,1.171149e-06,3.0635288,6
7490.517786492739,435458.72,81.31908,-9.417694,1.1217292e-06,3.0635333,6
7490.948789126502,345494.38,83.13154,-9.22881,1.0799544e-06,3.0635247,6
7491.380779093684,274105.56,85.025024,-9.118451,1.0484365e-06,3.0635226,6
7491.811775060865,217478.84,86.83924,-8.983324,1.0195289e-06,3.063526,6
7492.103793021379,172543.05,88.833755,-8.82349,9.831631e-07,3.0635254,6
7493.368797801464,136895.03,90.76786,-8.770828,9.852145e-07,3.0635216,6
7495.051780388079,108614.164,92.75174,-8.727206,1.0558952e-06,3.0635211,6
7496.177792708186,86169.46,94.582794,-8.677883,9.977094e-07,3.0635228,6
7496.747772601928,68364.016,96.707726,-8.641486,1.0092721e-06,3.063519,6
7497.039779042505,54242.133,98.693504,-8.6099415,1.0618629e-06,3.063522,6
7497.4707973829645,43033.695,100.6724,-8.6927,9.876387e-07,3.0635166,6
7497.7627967835,34144.895,102.7707,-8.824615,1.0001337e-06,3.0635183,6
7498.054792770679,27093.232,104.85014,-8.911461,9.708543e-07,3.0635154,6
7498.346779104584,21489.018,107.07156,-9.164341,9.992012e-07,3.0635254,6
7498.77778280506,17053.887,109.451485,-9.444757,9.421345e-07,3.0635304,6
7499.069789192261,13528.057,111.79701,-9.841205,9.4661016e-07,3.0635254,6
7499.3617912328045,10735.229,114.38756,-10.2967825,9.833492e-07,3.0635195,6
7499.677596287773,8517.451,117.42115,-10.83487,8.9998696e-07,3.063516,6
7500.053073879011,6753.7354,120.563934,-11.485568,9.3169075e-07,3.063507,6
7500.504651580384,5359.6797,124.23213,-12.095735,9.0632756e-07,3.0635216,6
7500.972111842653,4253.6406,128.02621,-12.82798,8.984947e-07,3.0635135,6
7501.4391025314835,3373.921,132.25581,-13.450262,8.270677e-07,3.0635178,6
7501.9058593002555,2677.5674,137.35832,-14.135259,8.335948e-07,3.063514,6
7502.373115055845,2124.317,142.88144,-14.792014,8.123345e-07,3.0635169,6
7502.840008118044,1685.5374,148.40152,-15.319124,8.414274e-07,3.0635235,6
7503.306732700177,1337.1407,155.05788,-15.876215,8.1363976e-07,3.0635164,6
7503.773854642321,1061.0223,161.78094,-16.301636,8.945777e-07,3.0635135,6
7504.240751464531,841.34937,168.53873,-16.804277,8.854394e-07,3.0635147,6
7504.7097645001195,667.64954,176.46788,-17.123446,8.412405e-07,3.063518,6
7505.177136922372,529.83014,184.5415,-17.725935,9.150918e-07,3.0635073,6
7505.643843131169,420.40347,193.70859,-18.11775,8.9271254e-07,3.0635002,6
7506.11301582017,333.39932,202.63275,-18.560848,8.6175476e-07,3.0635014,6
7506.581352669047,264.5768,212.64828,-19.091846,8.6436563e-07,3.0635095,6
7507.047113011184,209.93277,223.57472,-19.406378,9.218055e-07,3.063513,6
7507.510190286499,166.5458,235.84344,-19.96782,8.994263e-07,3.0635216,6
7508.2207905068935,132.1569,249.79604,-20.411995,1.7079169e-06,3.0635223,6
7508.688395595789,104.8319,265.06805,-20.539507,1.7029021e-06,3.063516,6
7509.163493271655,83.16338,281.6724,-20.52205,1.7000311e-06,3.0635169,6
7509.623038946869,65.992546,299.65408,-20.2769,1.6802886e-06,3.0635052,6
7510.072022941546,52.362606,318.73856,-19.787436,1.6733162e-06,3.0635045,6
7510.52467170966,41.52827,338.2621,-18.963692,1.693245e-06,3.0635118,6
7511.017390239722,32.964127,356.94412,-17.858974,1.6836254e-06,3.0635135,6
7511.466263674403,26.146248,375.19107,-16.583784,1.702007e-06,3.0635066,6
7511.9188276692,20.750315,392.04102,-14.941353,1.679841e-06,3.063497,6
7512.349335476349,16.45893,407.4787,-13.63922,1.6779209e-06,3.0635011,6
7512.878710781486,13.064369,420.34396,-12.188881,1.7418929e-06,3.0635073,6
7513.331096109658,10.361374,432.17346,-10.768388,1.721824e-06,3.063522,6
7513.887262082746,8.223653,441.62436,-9.521231,1.7631266e-06,3.063523,6
7514.25736863364,6.5212846,449.56982,-8.371097,1.7269134e-06,3.0635197,6
7514.713318255293,5.1738396,456.59326,-7.3358817,1.6932449e-06,3.063507,6
7515.271777668473,4.103206,463.39948,-6.450938,1.7325434e-06,3.0635154,6
7515.9610782612435,3.257923,468.9216,-5.729638,1.6861048e-06,3.0635104,6
7516.8162503285275,2.5834963,472.64233,-5.055953,1.7150074e-06,3.0635123,6
7517.882164752489,2.049446,477.68344,-4.519982,1.744773e-06,3.0635142,6
7519.880317674048,1.6259104,481.61615,-4.0701923,1.7974891e-06,3.0635076,6
7521.548530713277,1.2902544,485.17517,-3.6242712,1.7820666e-06,3.0635028,6
7523.640498519322,1.0236502,487.98672,-3.3121927,1.7559935e-06,3.0635016,6
7526.2632392839005,0.8126199,490.81445,-3.0251455,1.7609991e-06,3.0635052,6
7529.561602880509,0.64438283,493.49573,-2.8091092,1.7509777e-06,3.063496,6
7533.70846926418,0.51122236,496.62482,-2.5827441,1.7559419e-06,3.0634975,6
7538.9224891118065,0.4058443,499.02905,-2.467778,1.768452e-06,3.063505,6
7545.487659103615,0.32181963,501.57666,-2.3699744,1.7505498e-06,3.0635028,6
7553.753734962927,0.25531054,504.1227,-2.2210903,1.738618e-06,3.0635014,6
7564.1619974573405,0.2025798,506.3497,-2.1452422,1.7440029e-06,3.0635047,6
7577.273373653414,0.16068146,508.89664,-2.0833826,1.737207e-06,3.0634995,6
7593.789129691213,0.12750551,510.61624,-1.9781492,1.7174267e-06,3.0635037,6
7614.580486198742,0.10123998,513.1438,-2.001207,1.687723e-06,3.0634944,6
7640.7863189101045,0.08030087,515.6166,-1.9443693,1.6667491e-06,3.0634935,6
7673.819063252435,0.063687116,517.98914,-1.939792,1.680337e-06,3.0635002,6
7715.452564856532,0.050522164,520.4632,-1.9871485,1.6445788e-06,3.0634987,6
7767.935887722677,0.040071532,522.33026,-1.9756848,1.6410409e-06,3.0634952,6
7834.0430428893305,0.03180936,524.21,-2.0480027,1.6355668e-06,3.063503,6
7917.308321110875,0.02525203,526.9095,-2.0721333,1.5932352e-06,3.0635004,6
8022.344781486463,0.020016208,528.4717,-2.1473627,1.5779631e-06,3.063509,6
8154.754629828938,0.01587741,531.3523,-2.240963,1.5218583e-06,3.063504,6
8321.509266976092,0.01260668,534.0078,-2.325483,1.4827343e-06,3.0635085,6
8531.778709256672,0.009997264,536.4261,-2.510872,1.4363484e-06,3.0635061,6
8531.7969442709,0.0,0.0,0.0,-8.07952e-06,3.0615528,6
8707.36661857419,7000018.5,50.7727,-20.809189,-1.199408e-07,3.063734,7
8709.048626814096,5553741.0,55.61887,-19.10193,1.206955e-06,3.0637424,7
8710.73062444065,4406287.0,59.82821,-17.506617,1.185508e-06,3.063734,7
8712.412636787223,3495908.2,62.81901,-16.199991,1.2285877e-06,3.0637264,7
8712.983645294327,2773623.0,65.86747,-15.014377,1.180847e-06,3.0637186,7
8713.414621874806,2200573.5,68.27248,-13.755355,1.1925965e-06,3.0637262,7
8713.845630561933,1745917.5,70.51465,-12.717427,1.1780493e-06,3.0637252,7
8714.276647169085,1385197.1,72.51525,-11.768576,1.171336e-06,3.0637217,7
8714.707624922856,1099001.6,74.369125,-11.043815,1.1707768e-06,3.0637207,7
8715.138626836706,871938.1,76.08353,-10.442724,1.164809e-06,3.0637226,7
8715.569642083836,691786.7,77.84027,-9.984632,1.1342239e-06,3.063723,7
8716.000641490973,548860.6,79.531685,-9.6817665,1.1239663e-06,3.063714,7
8716.431630178122,435458.72,81.3459,-9.447877,1.1577223e-06,3.0637214,7
8716.86262982525,345494.38,83.078575,-9.264596,1.0971119e-06,3.0637167,7
8717.293633232359,274105.56,84.974464,-9.068683,1.1077414e-06,3.063721,7
8717.724627466174,217478.84,86.81862,-8.959226,1.0864799e-06,3.063717,7
8718.01662993338,172543.05,88.71819,-8.840052,1.0758503e-06,3.0637155,7
8719.281638233457,136895.03,90.71181,-8.775569,1.0918884e-06,3.063719,7
8720.963624553347,108614.164,92.56004,-8.770243,1.0249372e-06,3.0637171,7
8722.228636373417,86169.46,94.65435,-8.679287,1.1392578e-06,3.0637252,7
8722.659635407268,68364.016,96.67495,-8.669384,1.0889046e-06,3.0637155,7
8723.090640974406,54242.133,98.65801,-8.668553,1.0434003e-06,3.063718,7
8723.38264541491,43033.695,100.67286,-8.665116,1.0892776e-06,3.0637205,7
8723.674648628803,34144.895,102.74516,-8.791992,1.1105377e-06,3.0637228,7
8724.105623182608,27093.232,105.08471,-8.928909,1.0775284e-06,3.0637176,7
8724.398639116494,21489.018,107.12645,-9.181961,1.06149e-06,3.0637176,7
8724.690646890376,17053.887,109.39602,-9.504406,1.0734254e-06,3.0637186,7
8724.98262543761,13528.057,111.82116,-9.761245,1.0353807e-06,3.063718,7
8725.413635964738,10735.229,114.55931,-10.40117,1.0659658e-06,3.0637212,7
8725.730451713083,8517.451,117.44253,-10.879722,1.0506734e-06,3.0637314,7
8726.105933704326,6753.7354,120.499664,-11.505142,1.0424677e-06,3.0637283,7
8726.557498685725,5359.6797,124.06891,-12.10151,9.848413e-07,3.063715,7
8727.024989614612,4253.6406,128.05415,-12.800589,9.92301e-07,3.0637226,7
8727.491967236812,3373.921,132.52753,-13.535191,9.984551e-07,3.0637195,7
8727.95872885891,2677.5674,137.31027,-14.07414,1.0538434e-06,3.0637138,7
8728.425952961174,2124.317,142.81952,-14.855454,1.0277341e-06,3.0637186,7
8728.892859730026,1685.5374,148.57677,-15.245161,1.0512323e-06,3.0637126,7
8729.359591325454,1337.1407,154.98753,-15.919045,1.0398561e-06,3.0637167,7
8729.826702894352,1061.0223,161.89108,-16.277119,1.0648461e-06,3.0637193,7
8730.293563556508,841.34937,168.96602,-16.746162,1.0739841e-06,3.0637226,7
8730.762618538807,667.64954,176.49344,-17.111956,1.0928197e-06,3.0637176,7
8731.229976854374,529.83014,185.18202,-17.586773,1.0122548e-06,3.06371,7
8731.696686796495,420.40347,193.06131,-18.02933,9.922999e-07,3.063713,7
8732.165873458813,333.39932,202.4978,-18.590372,9.4399815e-07,3.0637097,7
8732.634201294364,264.5768,213.06294,-18.868454,9.546283e-07,3.063703,7
8733.099986169866,209.93277,223.62074,-19.480764,9.848401e-07,3.0637197,7
8733.563051658508,166.5458,236.81265,-20.044807,9.0054533e-07,3.063718,7
8734.273638438899,132.1569,249.9172,-20.368233,1.7328794e-06,3.0637121,7
8734.742223154492,104.8319,265.03464,-20.565084,1.7180585e-06,3.0637054,7
8735.217314963695,83.16338,281.68777,-20.58903,1.7094828e-06,3.0637105,7
8735.677904238953,65.992546,299.82755,-20.313082,1.7148519e-06,3.063705,7
8736.125865726906,52.362606,318.58838,-19.734497,1.7277898e-06,3.0637157,7
8736.577522468287,41.52827,338.55048,-18.91967,1.7375771e-06,3.0637217,7
8737.07024286507,32.964127,356.8573,-17.797783,1.7359179e-06,3.0637212,7
8737.519115686417,26.146248,375.24112,-16.505342,1.7246018e-06,3.0637152,7
8737.970682401152,20.750315,392.2458,-15.095401,1.7279762e-06,3.0637124,7
8738.401184101647,16.45893,407.13257,-13.578748,1.7325622e-06,3.0637167,7
8738.930555353407,13.064369,420.6423,-12.087235,1.7771365e-06,3.0637245,7
8739.382917108276,10.361374,431.51535,-10.70514,1.7199598e-06,3.0637116,7
8739.940112761396,8.223653,441.3251,-9.595851,1.7435146e-06,3.0637145,7
8740.310226032336,6.5212846,449.69354,-8.357724,1.7290388e-06,3.0637217,7
8740.766167227295,5.1738396,457.14847,-7.2761474,1.7104335e-06,3.0637176,7
8741.324630080431,4.103206,463.17462,-6.505747,1.7355263e-06,3.0637128,7
8742.013930059911,3.257923,468.56598,-5.753425,1.7169583e-06,3.0637205,7
8742.869096980517,2.5834963,473.29745,-5.0149155,1.7331093e-06,3.063721,7
8743.936043617898,2.049446,477.04825,-4.473764,1.7408673e-06,3.0637138,7
8745.934169712767,1.6259104,481.2558,-4.024502,1.824419e-06,3.0637145,7
8747.60221731197,1.2902544,484.34903,-3.644002,1.8134764e-06,3.0637038,7
8749.693181544659,1.0236502,487.56616,-3.2965555,1.8308763e-06,3.0637171,7
8752.3169831626,0.8126199,490.53958,-3.0196533,1.8369457e-06,3.0637245,7
8755.615799665975,0.64438283,493.90356,-2.7902563,1.8206322e-06,3.0637145,7
8759.764249836328,0.51122236,496.31152,-2.6279192,1.8201625e-06,3.0637124,7
8764.978135310637,0.4058443,498.70468,-2.4152467,1.8427033e-06,3.0637238,7
8771.54421524916,0.32181963,501.2994,-2.3155837,1.8287841e-06,3.0637197,7
8779.81043446844,0.25531054,503.73676,-2.2164636,1.8084705e-06,3.0637105,7
8790.21863477613,0.2025798,505.99033,-2.1610103,1.7782454e-06,3.0637007,7
8803.331020305632,0.16068146,508.35938,-2.0810404,1.7563428e-06,3.0636938,7
8819.845879303393,0.12750551,510.7077,-2.015383,1.7459045e-06,3.063689,7
8840.637195197574,0.10123998,512.8371,-1.9870002,1.7438002e-06,3.0637012,7
8866.842859028962,0.08030087,515.1348,-1.9742681,1.7203824e-06,3.0637057,7
8899.87673857127,0.063687116,517.3282,-1.9900101,1.725912e-06,3.063712,7
8941.510113215452,0.050522164,519.73517,-1.9432328,1.6973718e-06,3.0637107,7
8993.99237205484,0.040071532,522.2061,-1.9482464,1.6884503e-06,3.063718,7
9060.099422421423,0.03180936,524.72345,-2.0355356,1.6589364e-06,3.063723,7
9143.364727123,0.02525203,526.3672,-2.1163497,1.6363548e-06,3.0637205,7
9248.40218331205,0.020016208,528.4983,-2.143667,1.600715e-06,3.0636992,7
9380.810940694471,0.01587741,530.4857,-2.2718863,1.5945824e-06,3.0637202,7
9547.56556002819,0.01260668,532.83887,-2.390639,1.5569814e-06,3.0637305,7
9757.836056495522,0.009997264,535.2899,-2.5702279,1.4872592e-06,3.0637174,7
9757.853794309718,0.0,0.0,0.0,-4.2054785e-06,3.0618792,7
9933.957474958384,7000018.5,50.73167,-20.782068,4.7156952e-08,3.0638344,8
9934.667489045416,5553741.0,55.651745,-19.064127,1.4410037e-06,3.0638518,8
9936.349477072014,4406287.0,59.827248,-17.468132,1.431679e-06,3.063834,8
9938.031471311871,3495908.2,62.824123,-16.191702,1.3999751e-06,3.0638325,8
9938.879478152143,2773623.0,65.829735,-14.979196,1.3002026e-06,3.063833,8
9939.310486172617,2200573.5,68.23823,-13.73772,1.3184793e-06,3.0638285,8
9939.741484299768,1745917.5,70.43968,-12.700573,1.3641694e-06,3.06383,8
9940.173478453653,1385197.1,72.45853,-11.748393,1.3464531e-06,3.0638337,8
9940.604484874115,1099001.6,74.32904,-11.042857,1.3546592e-06,3.0638342,8
9941.035472681222,871938.1,76.07751,-10.446501,1.3328392e-06,3.0638206,8
9941.46749739506,691786.7,77.77921,-9.983784,1.3147493e-06,3.06383,8
9941.898497762217,548860.6,79.51279,-9.656122,1.3016944e-06,3.0638232,8
9942.329496209393,435458.72,81.24345,-9.458351,1.2716696e-06,3.063819,8
9942.760479936493,345494.38,83.06573,-9.224895,1.2774507e-06,3.0638227,8
9943.191498170316,274105.56,84.87715,-9.041433,1.2349298e-06,3.0638251,8
9943.622496590775,217478.84,86.708115,-8.945496,1.2448126e-06,3.063829,8
9943.915496978036,172543.05,88.66991,-8.872843,1.2201959e-06,3.0638318,8
9945.180479438102,136895.03,90.71965,-8.831151,1.1756239e-06,3.0638163,8
9946.863497518061,108614.164,92.50034,-8.603976,1.1819645e-06,3.0638235,8
9948.128495951474,86169.46,94.7073,-8.700767,1.1651804e-06,3.0638187,8
9948.559478398587,68364.016,96.545715,-8.623575,1.1416822e-06,3.063825,8
9948.990480525768,54242.133,98.58731,-8.666922,1.146904e-06,3.0638225,8
9949.282483392919,43033.695,100.73411,-8.681348,1.1396306e-06,3.0638347,8
9949.71347344009,34144.895,102.733925,-8.798406,1.1094187e-06,3.0638328,8
9950.00647974736,27093.232,104.76237,-8.924078,1.1357143e-06,3.0638187,8
9950.298484667845,21489.018,107.01826,-9.164751,1.0937532e-06,3.0638163,8
9950.590476575075,17053.887,109.349846,-9.414795,1.1483957e-06,3.0638323,8
9951.021496142203,13528.057,111.729675,-9.82985,1.1814051e-06,3.0638206,8
9951.313475969422,10735.229,114.361694,-10.3539915,1.139444e-06,3.0638251,8
9951.629294624436,8517.451,117.29151,-10.835242,1.0268022e-06,3.0638163,8
9952.00477117562,6753.7354,120.58764,-11.466341,1.0029312e-06,3.063823,8
9952.456386023725,5359.6797,123.9997,-12.199011,1.0648469e-06,3.0638165,8
9952.92480580599,4253.6406,128.0411,-12.818963,1.1418683e-06,3.06382,8
9953.391835001501,3373.921,132.36148,-13.482926,1.0286668e-06,3.0638165,8
9953.858546703646,2677.5674,137.22075,-14.116115,1.0254963e-06,3.0638144,8
9954.325804619235,2124.317,142.61081,-14.812196,1.0357534e-06,3.063818,8
9954.792708854715,1685.5374,148.35094,-15.421289,9.952843e-07,3.0638094,8
9955.259446503478,1337.1407,154.94182,-15.796708,1.0848009e-06,3.0638185,8
9955.726560659008,1061.0223,161.48029,-16.409126,9.9603e-07,3.063818,8
9956.19341070787,841.34937,169.04019,-16.816359,1.0122548e-06,3.0638208,8
9956.662461343454,667.64954,176.3297,-17.147865,1.0555211e-06,3.0638278,8
9957.129827579047,529.83014,184.43932,-17.603283,1.0387367e-06,3.0638268,8
9957.596583361097,420.40347,193.17845,-17.979507,1.0549616e-06,3.0638294,8
9958.065720050188,333.39932,202.39058,-18.627247,1.1416809e-06,3.0638275,8
9958.534053352429,264.5768,212.31996,-19.095366,1.1077392e-06,3.0638182,8
9958.999816867872,209.93277,223.52399,-19.388153,1.1144529e-06,3.0638244,8
9959.462890863186,166.5458,235.95181,-19.935575,1.1196747e-06,3.0638146,8
9960.172473696875,132.1569,250.16624,-20.324049,1.7619617e-06,3.0638142,8
9960.641083479131,104.8319,264.8868,-20.503962,1.7560893e-06,3.0638108,8
9961.116182088386,83.16338,281.8647,-20.56306,1.7659698e-06,3.063829,8
9961.575746163551,65.992546,299.4815,-20.327518,1.7775654e-06,3.0638301,8
9962.024717598222,52.362606,318.35837,-19.802153,1.7556978e-06,3.0638256,8
9962.475390606269,41.52827,338.22974,-18.90408,1.7669577e-06,3.0638275,8
9962.968094442971,32.964127,356.86295,-17.738277,1.7616632e-06,3.0638263,8
9963.41696745099,26.146248,374.82452,-16.434761,1.7456306e-06,3.0638206,8
9963.870514059148,20.750315,391.73,-15.038806,1.7420512e-06,3.0638192,8
9964.301016159647,16.45893,406.82843,-13.568606,1.7314251e-06,3.0638201,8
9964.830385758076,13.064369,420.05527,-12.054837,1.791715e-06,3.0638266,8
9965.282764792966,10.361374,431.50555,-10.733639,1.7346316e-06,3.0638194,8
9965.840000179422,8.223653,441.16742,-9.472489,1.7565272e-06,3.0638182,8
9966.210051396978,6.5212846,449.48688,-8.289176,1.7242103e-06,3.0638154,8
9966.666028458654,5.1738396,456.67862,-7.3489404,1.7294675e-06,3.063811,8
9967.224496911804,4.103206,462.576,-6.4062123,1.7672e-06,3.0638185,8
9967.913790011284,3.257923,468.15155,-5.7077317,1.7491633e-06,3.0638254,8
9968.768957385211,2.5834963,472.8463,-5.0598197,1.7687851e-06,3.0638232,8
9969.834871569154,2.049446,476.6807,-4.5006404,1.7889232e-06,3.0638251,8
9971.833000730723,1.6259104,480.72443,-4.0229764,1.8492046e-06,3.0638266,8
9973.501189983275,1.2902544,484.4436,-3.592834,1.8337189e-06,3.0638235,8
9975.59301949598,1.0236502,487.25864,-3.3130796,1.8214071e-06,3.063823,8
9978.217120900634,0.8126199,489.89017,-3.0170474,1.8226663e-06,3.0638275,8
9981.515442630625,0.64438283,492.74365,-2.7928145,1.7893313e-06,3.0638216,8
9985.660768054193,0.51122236,495.4373,-2.6114922,1.7816066e-06,3.0638177,8
9990.875286861847,0.4058443,497.98645,-2.4681022,1.7971465e-06,3.0638263,8
9997.440586746961,0.32181963,500.6142,-2.2935183,1.77902e-06,3.0638158,8
10005.706731806335,0.25531054,502.96225,-2.1920254,1.7780169e-06,3.063813,8
10016.113839260652,0.2025798,505.60095,-2.1320872,1.7690087e-06,3.0638118,8
10029.225139696675,0.16068146,507.66068,-2.0922704,1.7644999e-06,3.0638187,8
10045.74102994788,0.12750551,509.99152,-2.0213466,1.7531245e-06,3.0638187,8
10066.533410775417,0.10123998,512.0791,-1.9876512,1.6946967e-06,3.0638044,8
10092.739114473457,0.08030087,514.705,-1.9306424,1.7086886e-06,3.063814,8
10125.772985135845,0.063687116,516.61957,-1.9689156,1.6997091e-06,3.0638094,8
10167.406632980012,0.050522164,518.3492,-1.946386,1.7138867e-06,3.06384,8
10219.88983213948,0.040071532,521.14307,-1.9462955,1.6459114e-06,3.0638168,8
10285.995979332685,0.03180936,523.5967,-1.990549,1.62745e-06,3.0638309,8
10369.260279260809,0.02525203,526.0428,-2.0720272,1.6125873e-06,3.0638292,8
10474.297896409873,0.020016208,527.9178,-2.1938643,1.567565e-06,3.0638082,8
10606.706712298968,0.01587741,530.12,-2.322676,1.557137e-06,3.063816,8
10773.46134459268,0.01260668,531.81586,-2.4530218,1.5031927e-06,3.063838,8
10983.731874633377,0.009997264,534.50726,-2.5249343,1.4462602e-06,3.0638409,8
10983.749644340889,0.0,0.0,0.0,4.4742143e-07,3.0621197,8
11160.146324896836,7000018.5,50.871906,-20.707531,-5.1311527e-08,3.0639641,9
11161.828322843416,5553741.0,55.601383,-19.073046,1.3425355e-06,3.0639794,9
11163.510322763294,4406287.0,59.789585,-17.426384,1.2888253e-06,3.0639658,9
11165.19233692321,3495908.2,62.735565,-16.20301,1.2267228e-06,3.0639505,9
11165.762330283585,2773623.0,65.808266,-14.982298,1.2345569e-06,3.0639446,9
11166.193341317412,2200573.5,68.18828,-13.734677,1.2028537e-06,3.0639427,9
11166.624323311204,1745917.5,70.45796,-12.682637,1.2612254e-06,3.0639484,9
11167.05532535835,1385197.1,72.460754,-11.752732,1.2321327e-06,3.0639365,9
11167.486344658828,1099001.6,74.34819,-11.041585,1.2427631e-06,3.0639317,9
11167.917326039285,871938.1,76.07759,-10.484083,1.2492904e-06,3.0639424,9
11168.348344753089,691786.7,77.77718,-10.024322,1.1752526e-06,3.0639439,9
11168.77934690693,548860.6,79.52174,-9.642642,1.1709626e-06,3.0639398,9
11169.210348154069,435458.72,81.24598,-9.442068,1.1530599e-06,3.0639408,9
11169.64133185451,345494.38,83.06426,-9.269721,1.1441081e-06,3.063946,9
11170.073330061685,274105.56,84.884155,-9.104435,1.0661535e-06,3.0639305,9
11170.504332082171,217478.84,86.8466,-8.923773,1.0719334e-06,3.0639336,9
11170.796329349396,172543.05,88.68373,-8.875268,1.0271756e-06,3.063938,9
11172.06132375612,136895.03,90.39318,-8.78992,1.0424678e-06,3.0639434,9
11173.743329729361,108614.164,92.668594,-8.670717,1.0984155e-06,3.0639465,9
11175.008335762774,86169.46,94.59216,-8.673578,1.0365001e-06,3.063944,9
11175.439339889912,68364.016,96.48738,-8.720487,1.0445192e-06,3.0639398,9
11175.871330523747,54242.133,98.62025,-8.606308,9.923012e-07,3.0639417,9
11176.164326884318,43033.695,100.726555,-8.663099,1.0253103e-06,3.0639434,9
11176.596347864834,34144.895,102.76459,-8.774998,1.0532843e-06,3.063936,9
11176.888326412067,27093.232,104.74753,-8.978992,1.0176641e-06,3.0639374,9
11177.18032706593,21489.018,106.99487,-9.030211,1.0654063e-06,3.0639336,9
11177.472327719792,17053.887,109.428474,-9.450063,1.09711e-06,3.0639393,9
11177.903344700288,13528.057,111.84726,-9.798883,1.0586925e-06,3.0639415,9
11178.19533207413,10735.229,114.404274,-10.385333,1.0833096e-06,3.0639446,9
11178.511139315844,8517.451,117.29025,-10.872035,1.0545898e-06,3.0639222,9
11178.886627067026,6753.7354,120.46694,-11.474798,9.986418e-07,3.0639353,9
11179.338200741739,5359.6797,123.95317,-12.149579,9.607836e-07,3.0639336,9
11179.805655350676,4253.6406,128.07837,-12.77961,1.0103906e-06,3.0639455,9
11180.272677159519,3373.921,132.38911,-13.500145,9.710405e-07,3.063942,9
11180.739387501671,2677.5674,137.28328,-14.064216,9.613427e-07,3.0639453,9
11181.206644617196,2124.317,142.6514,-14.792021,9.341146e-07,3.0639515,9
11181.67356079939,1685.5374,148.45123,-15.391645,9.674968e-07,3.0639384,9
11182.140306421497,1337.1407,154.88556,-15.977062,9.646993e-07,3.0639415,9
11182.607395350351,1061.0223,161.24881,-16.28429,9.538826e-07,3.0639417,9
11183.074258679233,841.34937,169.10342,-16.701115,9.494067e-07,3.0639496,9
11183.54330755485,667.64954,176.7666,-17.126774,8.880503e-07,3.06395,9
11184.0106770704,529.83014,184.44739,-17.62034,9.1751616e-07,3.0639474,9
11184.4774160792,420.40347,193.13342,-18.163002,9.661909e-07,3.0639462,9
11184.946551754867,333.39932,202.66429,-18.48201,9.346735e-07,3.0639324,9
11185.413920683728,264.5768,212.42906,-18.798254,8.3079686e-07,3.0639234,9
11185.879679345846,209.93277,223.4753,-19.40543,9.439982e-07,3.0639257,9
11186.342748007824,166.5458,235.57722,-19.874954,9.1732966e-07,3.0639346,9
11187.05332990823,132.1569,249.61304,-20.273964,1.7058103e-06,3.0639374,9
11187.520930597122,104.8319,265.09387,-20.52677,1.7112726e-06,3.063945,9
11187.996037179662,83.16338,281.68088,-20.48824,1.718133e-06,3.0639465,9
11188.455603228183,65.992546,299.66568,-20.2889,1.7244529e-06,3.0639486,9
11188.90455343618,52.362606,318.37726,-19.684317,1.7009072e-06,3.0639386,9
11189.355230017565,41.52827,337.76483,-18.85345,1.6993412e-06,3.0639393,9
11189.848966734367,32.964127,356.88782,-17.74632,1.7001055e-06,3.0639446,9
11190.297831449017,26.146248,375.0574,-16.443336,1.6901503e-06,3.0639412,9
11190.7513736572,20.750315,391.55426,-15.048256,1.690952e-06,3.0639312,9
11191.181868690997,16.45893,406.47382,-13.579629,1.6833271e-06,3.0639331,9
11191.711253009445,13.064369,419.61377,-12.088732,1.7223554e-06,3.0639338,9
11192.163637964346,10.361374,431.13303,-10.779665,1.679431e-06,3.0639312,9
11192.72080628411,8.223653,440.6675,-9.499418,1.731863e-06,3.0639424,9
11193.090915395005,6.5212846,448.8758,-8.37265,1.6851168e-06,3.063949,9
11193.547867576708,5.1738396,456.11914,-7.277956,1.6933009e-06,3.0639374,9
11194.106340616534,4.103206,462.11353,-6.442481,1.7379871e-06,3.0639446,9
11194.795642329322,3.257923,467.63058,-5.65382,1.684483e-06,3.0639436,9
11195.65081274326,2.5834963,472.2256,-5.0135713,1.731649e-06,3.0639577,9
11196.716716873896,2.049446,476.2427,-4.497008,1.734184e-06,3.0639548,9
11198.714838142128,1.6259104,480.13205,-4.0195303,1.7930375e-06,3.0639498,9
11200.382952701359,1.2902544,483.58026,-3.6051993,1.7831852e-06,3.0639482,9
11202.474909547396,1.0236502,486.82175,-3.2918653,1.7648699e-06,3.063938,9
11205.098962498654,0.8126199,489.94742,-3.023994,1.7933044e-06,3.0639498,9
11208.397216762009,0.64438283,492.46887,-2.7826288,1.7577162e-06,3.0639393,9
11212.542736158939,0.51122236,495.26303,-2.5891404,1.7662894e-06,3.0639393,9
11217.75717299321,0.4058443,497.88824,-2.4569485,1.7517528e-06,3.0639374,9
11224.322480291783,0.32181963,499.9861,-2.3038533,1.7334495e-06,3.0639384,9
11232.58766121768,0.25531054,502.5549,-2.205524,1.7313049e-06,3.0639312,9
11242.996147818689,0.2025798,504.64447,-2.109053,1.7160331e-06,3.0639248,9
11256.108540441535,0.16068146,507.62027,-2.065399,1.7371351e-06,3.063935,9
11272.623424932593,0.12750551,510.0708,-2.0326583,1.722072e-06,3.063929,9
11293.415816586872,0.10123998,511.89157,-1.9652698,1.7213055e-06,3.0639281,9
11319.620566498197,0.08030087,513.90967,-1.956553,1.7225576e-06,3.063931,9
11352.654433240416,0.063687116,516.16034,-1.9314407,1.6897078e-06,3.0639272,9
11394.28794561798,0.050522164,518.6296,-1.9373708,1.6311737e-06,3.063915,9
11446.77129208413,0.040071532,520.4913,-1.9369066,1.5747084e-06,3.0639172,9
11512.877462450735,0.03180936,522.9348,-1.994562,1.5706149e-06,3.063927,9
11596.143855019007,0.02525203,525.23395,-2.0309832,1.523664e-06,3.0639045,9
11701.180289341253,0.020016208,527.9474,-2.1148138,1.5197394e-06,3.0639172,9
11833.590132243757,0.01587741,529.92285,-2.242585,1.5399429e-06,3.0639236,9
12000.344758617517,0.01260668,532.477,-2.4054227,1.458181e-06,3.063901,9
12210.614199724747,0.009997264,534.33167,-2.6635983,1.4321703e-06,3.063927,9
12210.632494418998,0.0,0.0,0.0,4.485795e-06,3.0621371,9
